sample2,,
Wavelength (nm),%T,
1800,14.88227558,
1799,14.95263767,
1798,15.06701088,
1797,15.02488995,
1796,15.09669113,
1795,15.13630581,
1794,15.28127193,
1793,15.25679779,
1792,15.38101578,
1791,15.44965553,
1790,15.50201511,
1789,15.51787853,
1788,15.61142349,
1787,15.69815826,
1786,15.72664261,
1785,15.7981205,
1784,15.8739748,
1783,15.91248035,
1782,16.04526329,
1781,16.07476234,
1780,16.14027405,
1779,16.22325706,
1778,16.30340767,
1777,16.37322998,
1776,16.4612999,
1775,16.53111649,
1774,16.59289932,
1773,16.78514099,
1772,16.64905739,
1771,16.75860977,
1770,16.86203384,
1769,16.96085358,
1768,17.1042366,
1767,17.13869476,
1766,17.22336769,
1765,17.20216942,
1764,17.3728714,
1763,17.42741394,
1762,17.57735825,
1761,17.61022186,
1760,17.72671509,
1759,17.84179306,
1758,17.85093307,
1757,17.99159813,
1756,18.03121948,
1755,18.15093422,
1754,18.23800087,
1753,18.35549355,
1752,18.37452888,
1751,18.50829124,
1750,18.56513023,
1749,18.65717506,
1748,18.78000832,
1747,18.89745522,
1746,18.93176651,
1745,19.14428711,
1744,19.11956787,
1743,19.19634438,
1742,19.40127373,
1741,19.50393677,
1740,19.56612968,
1739,19.78863525,
1738,19.81391525,
1737,19.9165287,
1736,20.03225327,
1735,20.11022949,
1734,20.20600319,
1733,20.34463501,
1732,20.37590218,
1731,20.54275513,
1730,20.67153358,
1729,20.80584335,
1728,20.8512249,
1727,20.98322105,
1726,21.10570526,
1725,21.19743919,
1724,21.32947731,
1723,21.42876625,
1722,21.60251236,
1721,21.67881966,
1720,21.76219177,
1719,21.9189682,
1718,22.03043747,
1717,22.1870327,
1716,22.32196236,
1715,22.40532875,
1714,22.56845474,
1713,22.65853882,
1712,22.82482147,
1711,22.93895721,
1710,23.0294075,
1709,23.206213,
1708,23.41808891,
1707,23.51163101,
1706,23.58455658,
1705,23.67066574,
1704,23.91556358,
1703,24.01194954,
1702,24.16344261,
1701,24.35138321,
1700,24.46294212,
1699,24.6108017,
1698,24.75576591,
1697,24.89621162,
1696,25.04652786,
1695,25.15521622,
1694,25.37499619,
1693,25.47599983,
1692,25.66262436,
1691,25.82741737,
1690,26.00698471,
1689,26.19996643,
1688,26.29364777,
1687,26.49766159,
1686,26.64074516,
1685,26.77373314,
1684,27.00671577,
1683,27.14056587,
1682,27.27751732,
1681,27.43857193,
1680,27.66330338,
1679,27.82975769,
1678,27.91806984,
1677,28.1541729,
1676,28.28939056,
1675,28.4330368,
1674,28.65171432,
1673,28.88177299,
1672,29.03655815,
1671,29.19854736,
1670,29.38122749,
1669,29.5857811,
1668,29.77659988,
1667,29.95604897,
1666,30.12695313,
1665,30.38765144,
1664,30.41262627,
1663,30.73635674,
1662,30.90412903,
1661,31.0758152,
1660,31.35265923,
1659,31.49121666,
1658,31.768507,
1657,31.93314934,
1656,32.06180954,
1655,32.29073715,
1654,32.49121475,
1653,32.6912117,
1652,32.91472626,
1651,33.02445984,
1650,33.39141464,
1649,33.52025986,
1648,33.70155334,
1647,33.97304916,
1646,34.15820313,
1645,34.34240723,
1644,34.673172,
1643,34.80898666,
1642,35.05997467,
1641,35.22161102,
1640,35.40752792,
1639,35.63349533,
1638,35.83317184,
1637,36.0535965,
1636,36.25737,
1635,36.5581398,
1634,36.6770134,
1633,36.91165161,
1632,37.11474991,
1631,37.36045074,
1630,37.59083557,
1629,37.78689575,
1628,38.06353378,
1627,38.27856064,
1626,38.54339981,
1625,38.72880173,
1624,38.88452911,
1623,39.09051895,
1622,39.4288826,
1621,39.59834671,
1620,39.80217743,
1619,40.0136528,
1618,40.28348923,
1617,40.42264557,
1616,40.72716522,
1615,40.8707695,
1614,41.1563797,
1613,41.36174393,
1612,41.59379196,
1611,41.79750061,
1610,41.94820404,
1609,42.16807175,
1608,42.49458694,
1607,42.72269821,
1606,42.90732193,
1605,43.07336426,
1604,43.27396011,
1603,43.46796036,
1602,43.71062851,
1601,43.87607574,
1600,44.11964798,
1599,44.34904861,
1598,44.62926865,
1597,44.7208252,
1596,44.96474838,
1595,45.18706512,
1594,45.37111664,
1593,45.5774231,
1592,45.70852661,
1591,45.97537994,
1590,46.1505661,
1589,46.34791183,
1588,46.54593658,
1587,46.7303772,
1586,46.85837555,
1585,47.10448837,
1584,47.26298141,
1583,47.46113968,
1582,47.65393066,
1581,47.76435089,
1580,47.96656418,
1579,48.16372681,
1578,48.28556824,
1577,48.53374481,
1576,48.64294052,
1575,48.76641464,
1574,48.84838867,
1573,49.0879097,
1572,49.26988983,
1571,49.47276688,
1570,49.52257538,
1569,49.70962524,
1568,49.85016632,
1567,49.9284935,
1566,50.08641052,
1565,50.07242584,
1564,50.32717133,
1563,50.42367554,
1562,50.54162598,
1561,50.56404495,
1560,50.82282257,
1559,50.85327148,
1558,51.02706146,
1557,51.09022903,
1556,51.17193985,
1555,51.21848679,
1554,51.35727692,
1553,51.4750824,
1552,51.53678131,
1551,51.61347198,
1550,51.66892242,
1549,51.78397751,
1548,51.82569122,
1547,51.89645767,
1546,51.93740845,
1545,51.99806595,
1544,52.08229446,
1543,52.14289474,
1542,52.20306396,
1541,52.21837616,
1540,52.24661255,
1539,52.27133179,
1538,52.28879547,
1537,52.34124756,
1536,52.40470886,
1535,52.49004364,
1534,52.43162537,
1533,52.48389435,
1532,52.48270035,
1531,52.47364807,
1530,52.4467659,
1529,52.50519562,
1528,52.50747681,
1527,52.50810242,
1526,52.49888229,
1525,52.46602249,
1524,52.35482025,
1523,52.42976379,
1522,52.35004425,
1521,52.47149658,
1520,52.42009735,
1519,52.32997513,
1518,52.42653656,
1517,52.27130127,
1516,52.23957443,
1515,52.24663162,
1514,52.17623901,
1513,52.17370224,
1512,52.09199905,
1511,52.03485489,
1510,51.94135284,
1509,51.96126175,
1508,51.88554001,
1507,51.89592361,
1506,51.81487656,
1505,51.76371765,
1504,51.78197479,
1503,51.5788269,
1502,51.54191971,
1501,51.49610138,
1500,51.38954926,
1499,51.22780609,
1498,51.29497147,
1497,51.12829208,
1496,51.05106735,
1495,51.08318329,
1494,51.03666687,
1493,50.87347031,
1492,50.85570908,
1491,50.77941513,
1490,50.63850403,
1489,50.63378143,
1488,50.43257523,
1487,50.40456009,
1486,50.21678162,
1485,50.17054749,
1484,50.0485611,
1483,50.11100006,
1482,49.90888596,
1481,49.86358261,
1480,49.79925156,
1479,49.67847443,
1478,49.51712036,
1477,49.46070099,
1476,49.4137764,
1475,49.27437592,
1474,49.17737198,
1473,49.02066422,
1472,49.05105591,
1471,48.90537643,
1470,48.77525711,
1469,48.75201035,
1468,48.6187973,
1467,48.54251862,
1466,48.39941788,
1465,48.39661407,
1464,48.17824173,
1463,48.09894562,
1462,48.04417419,
1461,47.95442963,
1460,47.86286163,
1459,47.72846603,
1458,47.67552185,
1457,47.45635986,
1456,47.46188354,
1455,47.36595917,
1454,47.19822311,
1453,47.12150955,
1452,47.07445526,
1451,46.94303131,
1450,46.91571426,
1449,46.87319565,
1448,46.79488373,
1447,46.58302689,
1446,46.50978851,
1445,46.40678024,
1444,46.39624023,
1443,46.24959564,
1442,46.17765427,
1441,46.04529953,
1440,45.99058533,
1439,45.95778656,
1438,45.84981155,
1437,45.77559662,
1436,45.54801941,
1435,45.62195587,
1434,45.55321503,
1433,45.32461166,
1432,45.31314087,
1431,45.20534515,
1430,45.18473434,
1429,45.14002991,
1428,45.0618515,
1427,44.99478149,
1426,44.88215637,
1425,44.77573776,
1424,44.76851654,
1423,44.68054199,
1422,44.66353226,
1421,44.57551193,
1420,44.47095108,
1419,44.30221176,
1418,44.27539444,
1417,44.21945572,
1416,44.24407578,
1415,44.14356232,
1414,44.11615753,
1413,44.0292778,
1412,44.00982666,
1411,43.88162231,
1410,43.86631012,
1409,43.81522369,
1408,43.82326889,
1407,43.68001938,
1406,43.58531952,
1405,43.60801697,
1404,43.55282593,
1403,43.48293304,
1402,43.52121735,
1401,43.45795441,
1400,43.43094254,
1399,43.31601715,
1398,43.316185,
1397,43.31598663,
1396,43.19252014,
1395,43.17533493,
1394,43.15646744,
1393,43.19284439,
1392,43.10777283,
1391,43.11285782,
1390,43.10499191,
1389,43.04276276,
1388,42.99826813,
1387,42.98662567,
1386,42.91172791,
1385,42.95910645,
1384,42.92736435,
1383,42.93201828,
1382,42.86964417,
1381,42.82787704,
1380,42.85715866,
1379,42.93741608,
1378,42.77889633,
1377,42.78168869,
1376,42.834095,
1375,42.83188629,
1374,42.79599762,
1373,42.8178215,
1372,42.8238678,
1371,42.80158234,
1370,42.85607147,
1369,42.80564117,
1368,42.8272438,
1367,42.8191185,
1366,42.82329559,
1365,42.78850937,
1364,42.8604126,
1363,42.84698868,
1362,42.85038757,
1361,42.85707855,
1360,42.84922409,
1359,42.94538498,
1358,42.96171188,
1357,42.99365997,
1356,43.02022934,
1355,43.01307678,
1354,43.06590271,
1353,43.08194351,
1352,43.04947662,
1351,43.1061554,
1350,43.16363525,
1349,43.11840057,
1348,43.18909836,
1347,43.26042938,
1346,43.25740814,
1345,43.32320404,
1344,43.30683517,
1343,43.3766098,
1342,43.38830185,
1341,43.53003311,
1340,43.59555817,
1339,43.53501129,
1338,43.66756821,
1337,43.67174911,
1336,43.6877594,
1335,43.76901627,
1334,43.76824188,
1333,43.93198013,
1332,43.91973495,
1331,43.94255066,
1330,44.13076401,
1329,44.14489365,
1328,44.19119644,
1327,44.26422882,
1326,44.26695251,
1325,44.42145538,
1324,44.41758347,
1323,44.54013824,
1322,44.54998779,
1321,44.69432068,
1320,44.73651505,
1319,44.78117371,
1318,44.94695282,
1317,45.00333023,
1316,45.1362114,
1315,45.16053009,
1314,45.22600555,
1313,45.38856888,
1312,45.44142532,
1311,45.54766846,
1310,45.7038269,
1309,45.67181015,
1308,45.75598526,
1307,45.90688705,
1306,45.96218109,
1305,46.17160034,
1304,46.26160812,
1303,46.39837265,
1302,46.48478317,
1301,46.51004028,
1300,46.67895126,
1299,46.79444885,
1298,46.91174698,
1297,47.03405762,
1296,47.06972504,
1295,47.24916077,
1294,47.3544426,
1293,47.51846313,
1292,47.65554047,
1291,47.75054932,
1290,47.87057495,
1289,47.95368576,
1288,48.12676239,
1287,48.2591362,
1286,48.46398926,
1285,48.60250854,
1284,48.71240234,
1283,48.78397751,
1282,48.9501915,
1281,49.05454636,
1280,49.17928696,
1279,49.3907547,
1278,49.54711914,
1277,49.71014786,
1276,49.83688354,
1275,50.0034523,
1274,50.12197495,
1273,50.23937988,
1272,50.41419983,
1271,50.63315201,
1270,50.83746338,
1269,51.02888489,
1268,51.14796066,
1267,51.24519348,
1266,51.41808319,
1265,51.66638947,
1264,51.82238388,
1263,51.98256302,
1262,52.18946457,
1261,52.34318542,
1260,52.55190659,
1259,52.76483917,
1258,52.82188034,
1257,53.09494019,
1256,53.27241516,
1255,53.41656876,
1254,53.5948143,
1253,53.83446121,
1252,53.92904282,
1251,54.24427795,
1250,54.45517349,
1249,54.5863266,
1248,54.82151413,
1247,55.07358932,
1246,55.20690536,
1245,55.38221741,
1244,55.67267609,
1243,55.83875275,
1242,56.01628494,
1241,56.17240524,
1240,56.49357605,
1239,56.63615417,
1238,56.88365555,
1237,57.0832901,
1236,57.35317993,
1235,57.48986053,
1234,57.64529037,
1233,57.88133621,
1232,58.170681,
1231,58.3784523,
1230,58.59773254,
1229,58.71142578,
1228,59.11989212,
1227,59.34224701,
1226,59.45183563,
1225,59.75664139,
1224,59.88540649,
1223,60.13496017,
1222,60.40794754,
1221,60.59377289,
1220,60.91374207,
1219,61.15112305,
1218,61.37893295,
1217,61.53105545,
1216,61.81029129,
1215,62.00735092,
1214,62.32556534,
1213,62.50068665,
1212,62.79701996,
1211,63.03225708,
1210,63.27927017,
1209,63.54877472,
1208,63.69848251,
1207,63.98865128,
1206,64.26519012,
1205,64.40589905,
1204,64.62687683,
1203,64.91161346,
1202,65.15634918,
1201,65.35267639,
1200,65.64063263,
1199,65.80187988,
1198,65.99171448,
1197,66.20648193,
1196,66.37015533,
1195,66.66892242,
1194,67.01053619,
1193,67.18801117,
1192,67.41192627,
1191,67.66105652,
1190,67.89041901,
1189,68.13665009,
1188,68.36429596,
1187,68.57309723,
1186,68.72238159,
1185,69.05974579,
1184,69.2830658,
1183,69.45894623,
1182,69.75921631,
1181,69.88131714,
1180,70.10379791,
1179,70.29646301,
1178,70.49395752,
1177,70.81977844,
1176,71.03283691,
1175,71.19155884,
1174,71.45956421,
1173,71.57900238,
1172,71.75234985,
1171,72.01116943,
1170,72.09276581,
1169,72.33194733,
1168,72.61798096,
1167,72.85610199,
1166,72.9727478,
1165,73.24143219,
1164,73.31481171,
1163,73.51435852,
1162,73.7960434,
1161,73.86373901,
1160,74.06500244,
1159,74.23082733,
1158,74.44236755,
1157,74.58982849,
1156,74.72358704,
1155,74.87019348,
1154,75.09870911,
1153,75.1847229,
1152,75.34284973,
1151,75.39995575,
1150,75.70860291,
1149,75.73348236,
1148,75.9254303,
1147,76.1091156,
1146,76.24762726,
1145,76.21659851,
1144,76.50569153,
1143,76.5691452,
1142,76.62349701,
1141,76.86405945,
1140,76.90956879,
1139,76.96554565,
1138,77.09758759,
1137,77.26996613,
1136,77.30307007,
1135,77.36663055,
1134,77.4839859,
1133,77.54777527,
1132,77.54325104,
1131,77.74829865,
1130,77.7997818,
1129,77.8637619,
1128,77.86457825,
1127,77.97149658,
1126,77.96419525,
1125,77.98802948,
1124,78.07316589,
1123,78.1341095,
1122,78.24554443,
1121,78.21102142,
1120,78.20361328,
1119,78.24718475,
1118,78.26037598,
1117,78.28149414,
1116,78.37770081,
1115,78.30580902,
1114,78.31677246,
1113,78.33019257,
1112,78.30322266,
1111,78.29964447,
1110,78.29443359,
1109,78.30544281,
1108,78.23490143,
1107,78.27161407,
1106,78.19641876,
1105,78.16416931,
1104,78.12451935,
1103,78.05670929,
1102,78.12005615,
1101,78.0017395,
1100,77.95983124,
1099,77.93115234,
1098,77.94247437,
1097,77.91759491,
1096,77.75293732,
1095,77.74701691,
1094,77.69257355,
1093,77.43269348,
1092,77.45910645,
1091,77.41874695,
1090,77.37345123,
1089,77.34094238,
1088,77.18184662,
1087,77.06820679,
1086,77.06192017,
1085,76.92923737,
1084,76.87788391,
1083,76.8065033,
1082,76.65471649,
1081,76.59606934,
1080,76.50601196,
1079,76.44003296,
1078,76.31777191,
1077,76.14552307,
1076,76.04103851,
1075,75.89234924,
1074,75.8144989,
1073,75.83023071,
1072,75.69445038,
1071,75.49105835,
1070,75.37680054,
1069,75.38279724,
1068,75.22964478,
1067,75.08361816,
1066,74.93891144,
1065,74.84912109,
1064,74.6961441,
1063,74.60832977,
1062,74.58625793,
1061,74.38459015,
1060,74.32646942,
1059,74.21619415,
1058,73.95639801,
1057,74.00275421,
1056,73.81191254,
1055,73.73064423,
1054,73.69831848,
1053,73.45126343,
1052,73.43289948,
1051,73.28291321,
1050,73.16049957,
1049,72.97794342,
1048,72.97250366,
1047,72.81562042,
1046,72.68675232,
1045,72.51888275,
1044,72.45213318,
1043,72.40190887,
1042,72.31187439,
1041,72.23867798,
1040,72.10292053,
1039,72.01950836,
1038,71.91866302,
1037,71.80784607,
1036,71.63742828,
1035,71.57713318,
1034,71.46841431,
1033,71.45974731,
1032,71.29666901,
1031,71.26315308,
1030,71.16938782,
1029,71.04527283,
1028,71.00036621,
1027,70.90930939,
1026,70.7131424,
1025,70.65623474,
1024,70.60848999,
1023,70.6264801,
1022,70.52728271,
1021,70.3975296,
1020,70.33808899,
1019,70.3176651,
1018,70.2678299,
1017,70.13964081,
1016,70.14015961,
1015,69.96762848,
1014,69.94823456,
1013,69.90283966,
1012,69.87091064,
1011,69.76318359,
1010,69.77007294,
1009,69.75753021,
1008,69.65642548,
1007,69.69985199,
1006,69.59907532,
1005,69.49219513,
1004,69.38082123,
1003,69.56414795,
1002,69.4500351,
1001,69.45451355,
1000,69.40564728,
999,69.37859344,
998,69.32672119,
997,69.40473175,
996,69.36366272,
995,69.2736969,
994,69.27047729,
993,69.30850983,
992,69.20119476,
991,69.24384308,
990,69.31158447,
989,69.22177887,
988,69.26118469,
987,69.24505615,
986,69.29623413,
985,69.33424377,
984,69.32033539,
983,69.30259705,
982,69.33494568,
981,69.34441376,
980,69.37652588,
979,69.5002594,
978,69.47344208,
977,69.45123291,
976,69.49127197,
975,69.54093933,
974,69.61094666,
973,69.56733704,
972,69.60082245,
971,69.74116516,
970,69.74066925,
969,69.7036972,
968,69.87129974,
967,69.78108215,
966,69.89649963,
965,69.99401093,
964,70.02677917,
963,70.0476532,
962,70.01758575,
961,70.21453094,
960,70.16836548,
959,70.2124176,
958,70.277565,
957,70.36798096,
956,70.39417267,
955,70.43438721,
954,70.54373169,
953,70.61136627,
952,70.67791748,
951,70.65382385,
950,70.77681732,
949,70.8447876,
948,70.99858856,
947,70.96893311,
946,71.01081085,
945,71.13511658,
944,71.18989563,
943,71.2514801,
942,71.32834625,
941,71.40296936,
940,71.48653412,
939,71.5459137,
938,71.53831482,
937,71.68213654,
936,71.80295563,
935,71.82150269,
934,71.87041473,
933,71.93578339,
932,71.93891907,
931,72.14504242,
930,72.1422348,
929,72.22134399,
928,72.28713226,
927,72.47067261,
926,72.47512054,
925,72.43856812,
924,72.638237,
923,72.66271973,
922,72.75532532,
921,72.8277359,
920,72.8770752,
919,73.00209808,
918,73.09107208,
917,73.03865814,
916,73.20049286,
915,73.20846558,
914,73.27405548,
913,73.33075714,
912,73.45754242,
911,73.51966858,
910,73.69389343,
909,73.65821075,
908,73.75162506,
907,73.77121735,
906,73.79357147,
905,73.96203613,
904,74.06401062,
903,74.06266785,
902,74.0848465,
901,74.22544098,
900,74.3999939,
899,74.35861969,
898,74.52657318,
897,74.54036713,
896,74.54029083,
895,74.65058899,
894,74.75783539,
893,74.80192566,
892,74.93536377,
891,75.07823181,
890,75.03105164,
889,75.16687775,
888,75.16947174,
887,75.40084076,
886,75.37489319,
885,75.45934296,
884,75.56619263,
883,75.64283752,
882,75.70090485,
881,75.81259918,
880,75.90415955,
879,76.02240753,
878,76.14012909,
877,76.20626831,
876,76.24186707,
875,76.41898346,
874,76.47027588,
873,76.55854797,
872,76.70022583,
871,76.72000122,
870,76.86243439,
869,77.0083313,
868,77.03256226,
867,77.14000702,
866,77.32564545,
865,77.42327881,
864,77.41975403,
863,77.50524139,
862,77.70343781,
861,77.80171967,
860,77.9944458,
859,78.00796509,
858,78.17955017,
857,78.23899078,
856,78.32591248,
855,78.44826508,
854,78.5397644,
853,78.6162796,
852,78.64667511,
851,78.75749969,
850,78.86325073,
849,79.11908722,
848,79.05576324,
847,79.12873077,
846,79.3062973,
845,79.37408447,
844,79.39717102,
843,79.49050903,
842,79.56650543,
841,79.73154449,
840,79.74224091,
839,79.7824707,
838,79.8839798,
837,79.85128784,
836,79.95176697,
835,79.96702576,
834,79.9336319,
833,79.97188568,
832,80.0067215,
831,80.01441956,
830,80.09220123,
829,80.16358948,
828,80.00648499,
827,80.02361298,
826,80.02970886,
825,80.01063538,
824,79.86301422,
823,79.7264328,
822,79.83695221,
821,79.71246338,
820,79.65093994,
819,79.54391479,
818,79.4865036,
817,79.2840271,
816,79.16900635,
815,78.95552063,
814,78.99514771,
813,78.79923248,
812,78.514534,
811,78.39039612,
810,78.22953796,
809,77.99250793,
808,77.83758545,
807,77.66553497,
806,77.37992096,
805,77.1194458,
804,76.88499451,
803,76.61737823,
802,76.32865143,
801,76.13456726,
800,75.86004639,
799,75.56745148,
798,75.27167511,
797,75.01714325,
796,74.70820618,
795,74.45742798,
794,74.17963409,
793,73.87426758,
792,73.63569641,
791,73.33609772,
790,73.03075409,
789,72.75395203,
788,72.45453644,
787,72.17626953,
786,71.92395782,
785,71.59967041,
784,71.33860016,
783,71.04708862,
782,70.75328064,
781,70.48696136,
780,70.20259094,
779,69.96799469,
778,69.6763916,
777,69.40825653,
776,69.21977997,
775,68.95156097,
774,68.69612122,
773,68.47445679,
772,68.25912476,
771,68.0817337,
770,67.86392212,
769,67.68282318,
768,67.52108765,
767,67.36481476,
766,67.18370819,
765,67.02484131,
764,66.93274689,
763,66.81277466,
762,66.71852875,
761,66.61261749,
760,66.5088501,
759,66.43480682,
758,66.3740921,
757,66.3920517,
756,66.35299683,
755,66.33878326,
754,66.36027527,
753,66.37877655,
752,66.43023682,
751,66.4900589,
750,66.55396271,
749,66.6944046,
748,66.79394531,
747,66.91841125,
746,67.02845764,
745,67.20148468,
744,67.35991669,
743,67.5713501,
742,67.79911041,
741,67.97252655,
740,68.22385406,
739,68.53361511,
738,68.79568481,
737,69.0759201,
736,69.37944031,
735,69.68919373,
734,70.04989624,
733,70.3888092,
732,70.72078705,
731,71.1239624,
730,71.50765228,
729,71.91557312,
728,72.32692719,
727,72.73786926,
726,73.12127686,
725,73.61836243,
724,74.01717377,
723,74.44194794,
722,74.90901184,
721,75.38100433,
720,75.82893372,
719,76.27400208,
718,76.69702148,
717,77.15534973,
716,77.54715729,
715,77.93115997,
714,78.35765076,
713,78.76261139,
712,79.14522552,
711,79.49072266,
710,79.84082794,
709,80.12080383,
708,80.435112,
707,80.72641754,
706,80.97159576,
705,81.16902924,
704,81.31899261,
703,81.47990417,
702,81.58861542,
701,81.65383148,
700,81.65654755,
699,81.7342453,
698,81.68077087,
697,81.62001801,
696,81.48097229,
695,81.3699646,
694,81.17212677,
693,80.96762085,
692,80.70028687,
691,80.45446014,
690,80.16869354,
689,79.8158493,
688,79.42501831,
687,79.06808472,
686,78.64674377,
685,78.25497437,
684,77.76831055,
683,77.28095245,
682,76.80391693,
681,76.28417969,
680,75.78657532,
679,75.26744843,
678,74.73480988,
677,74.23543549,
676,73.69663239,
675,73.16949463,
674,72.70773315,
673,72.15878296,
672,71.6484375,
671,71.16680145,
670,70.67964172,
669,70.22119904,
668,69.77073669,
667,69.36158752,
666,68.96533203,
665,68.55342102,
664,68.16574097,
663,67.83919525,
662,67.50902557,
661,67.18606567,
660,66.90724182,
659,66.67154694,
658,66.44195557,
657,66.24790192,
656,66.07073212,
655,65.89611053,
654,65.81991577,
653,65.73477173,
652,65.6619873,
651,65.59407043,
650,65.58267212,
649,65.5867691,
648,65.64310455,
647,65.72763824,
646,65.8258667,
645,65.94241333,
644,66.11573029,
643,66.27819824,
642,66.47975159,
641,66.67936707,
640,66.93537903,
639,67.20044708,
638,67.46505737,
637,67.76447296,
636,68.07572174,
635,68.40595245,
634,68.75606537,
633,69.0979538,
632,69.4736557,
631,69.83590698,
630,70.21234894,
629,70.59632874,
628,70.9801178,
627,71.38182831,
626,71.7360611,
625,72.09275055,
624,72.44165802,
623,72.80705261,
622,73.1374588,
621,73.45841217,
620,73.75985718,
619,74.02437592,
618,74.29538727,
617,74.53203583,
616,74.71092224,
615,74.89850616,
614,75.07173157,
613,75.17520905,
612,75.24139404,
611,75.30171204,
610,75.32621765,
609,75.31152344,
608,75.26019287,
607,75.18881226,
606,75.0925293,
605,74.90046692,
604,74.72766876,
603,74.52497864,
602,74.27684021,
601,73.99291992,
600,73.67459869,
599,73.35643768,
598,73.03770447,
597,72.61557007,
596,72.28926086,
595,71.86956787,
594,71.45890045,
593,71.03379059,
592,70.58529663,
591,70.12465668,
590,69.64860535,
589,69.19322968,
588,68.73165131,
587,68.20998383,
586,67.72253418,
585,67.20995331,
584,66.6943512,
583,66.20773315,
582,65.74396515,
581,65.25706482,
580,64.74623108,
579,64.24354553,
578,63.81263733,
577,63.33943558,
576,62.86440659,
575,62.40346527,
574,61.97021103,
573,61.5399704,
572,61.12165451,
571,60.74448776,
570,60.37917328,
569,60.01611328,
568,59.68867493,
567,59.38252258,
566,59.06305313,
565,58.79912949,
564,58.5479126,
563,58.34078979,
562,58.14653778,
561,57.97386932,
560,57.8454361,
559,57.78654861,
558,57.67098618,
557,57.57439041,
556,57.55528259,
555,57.52238083,
554,57.5376091,
553,57.5682869,
552,57.60462952,
551,57.66242599,
550,57.78276443,
549,57.89205551,
548,57.98523331,
547,58.08449554,
546,58.16479492,
545,58.24681091,
544,58.29473877,
543,58.34339905,
542,58.3323822,
541,58.25535583,
540,58.14390182,
539,57.98432922,
538,57.74097443,
537,57.41794205,
536,57.0165863,
535,56.54690933,
534,56.0015564,
533,55.34828186,
532,54.62625504,
531,53.82365417,
530,52.96337128,
529,52.01947784,
528,51.01801682,
527,49.97924423,
526,48.9160347,
525,47.80073929,
524,46.67171097,
523,45.5444603,
522,44.4184494,
521,43.2990799,
520,42.19101715,
519,41.11129379,
518,40.06528473,
517,39.05905533,
516,38.08649445,
515,37.14313507,
514,36.23926163,
513,35.3775177,
512,34.55839157,
511,33.76672363,
510,33.01216507,
509,32.27674866,
508,31.56760597,
507,30.87003899,
506,30.18101501,
505,29.4939003,
504,28.81533813,
503,28.10914803,
502,27.38951111,
501,26.65133095,
500,25.89279747,
499,25.09302711,
498,24.27370834,
497,23.41419792,
496,22.52390289,
495,21.61048889,
494,20.67221069,
493,19.71208,
492,18.7600174,
491,17.7874012,
490,16.82986641,
489,15.87947178,
488,14.946805,
487,14.04405689,
486,13.15569878,
485,12.31303692,
484,11.49922657,
483,10.72610092,
482,9.981590271,
481,9.27986908,
480,8.613683701,
479,7.986804962,
478,7.391876221,
477,6.832355976,
476,6.307096958,
475,5.814413071,
474,5.354095459,
473,4.922832966,
472,4.518003941,
471,4.141381264,
470,3.789569855,
469,3.458345652,
468,3.155189753,
467,2.871573687,
466,2.609063625,
465,2.364313841,
464,2.142161131,
463,1.937075377,
462,1.750505567,
461,1.578949451,
460,1.422046185,
459,1.279082775,
458,1.152029514,
457,1.033767462,
456,0.9278042316,
455,0.832770288,
454,0.7474046946,
453,0.670132339,
452,0.6003587842,
451,0.5385744572,
450,0.4841629863,
449,0.4339123964,
448,0.390874207,
447,0.3510715365,
446,0.3158181012,
445,0.2842493057,
444,0.2561507523,
443,0.2319380343,
442,0.2102800012,
441,0.1902249306,
440,0.1726749837,
439,0.1576915979,
438,0.1435897946,
437,0.1315380782,
436,0.1206454262,
435,0.1104966179,
434,0.1019145027,
433,0.0938860774,
432,0.08678100258,
431,0.08064525574,
430,0.07460472733,
429,0.06951275468,
428,0.06502699852,
427,0.0606784597,
426,0.05694459006,
425,0.05312450975,
424,0.05008702725,
423,0.04697197676,
422,0.04434809834,
421,0.04189809039,
420,0.03937244043,
419,0.03727804124,
418,0.03533631563,
417,0.03347764909,
416,0.03192028403,
415,0.03001476824,
414,0.0287116468,
413,0.02712297998,
412,0.02625416033,
411,0.02432319336,
410,0.0235605929,
409,0.02227693051,
408,0.02156402357,
407,0.02059911005,
406,0.01936287619,
405,0.01861249842,
404,0.01748997904,
403,0.01673543826,
402,0.01600177027,
401,0.01544335112,
400,0.01475303993,
399,0.01408385392,
398,0.01323560718,
397,0.01278442331,
396,0.01220269967,
395,0.01190038305,
394,0.01110607944,
393,0.01054505538,
392,0.0100193955,
391,0.009615740739,
390,0.00902260188,
389,0.008753900416,
388,0.00823455397,
387,0.008075712249,
386,0.007378971204,
385,0.006953659002,
384,0.006708709523,
383,0.006519357674,
382,0.006178163923,
381,0.005705658812,
380,0.005558833946,
379,0.005206400063,
378,0.004803352989,
377,0.004530957434,
376,0.004290203098,
375,0.004717748612,
374,0.00390470773,
373,0.003674472217,
372,0.003729027696,
371,0.003107974771,
370,0.003469584044,
369,0.00308434898,
368,0.002653703559,
367,0.002387279877,
366,0.002516245935,
365,0.002278011991,
364,0.002024912741,
363,0.001750390744,
362,0.001541009056,
361,0.001619599061,
360,0.00133275229,
359,0.001435678685,
358,0.001451035729,
357,0.0009121947223,
356,0.0009711065213,
355,0.001230741385,
354,0.0009772729827,
353,0.0005712489365,
352,0.0008663953049,
351,0.0007105850964,
350,0.0004756984708,

